Created as New Dataset,
nm,%R
2500.0,36.54
2495.0,36.37
2490.0,35.82
2485.0,35.93
2480.0,35.63
2475.0,36.30
2470.0,37.73
2465.0,35.23
2460.0,36.61
2455.0,36.59
2450.0,36.01
2445.0,34.33
2440.0,36.66
2435.0,36.00
2430.0,35.34
2425.0,37.32
2420.0,36.22
2415.0,35.10
2410.0,37.61
2405.0,36.64
2400.0,35.81
2395.0,37.01
2390.0,37.59
2385.0,36.69
2380.0,37.24
2375.0,36.04
2370.0,36.69
2365.0,36.28
2360.0,36.43
2355.0,35.49
2350.0,37.22
2345.0,35.11
2340.0,36.47
2335.0,36.07
2330.0,34.63
2325.0,37.15
2320.0,37.00
2315.0,35.73
2310.0,37.03
2305.0,36.42
2300.0,36.04
2295.0,36.32
2290.0,35.36
2285.0,35.54
2280.0,35.64
2275.0,35.58
2270.0,36.02
2265.0,35.08
2260.0,35.30
2255.0,35.47
2250.0,35.43
2245.0,35.25
2240.0,35.83
2235.0,35.26
2230.0,35.53
2225.0,34.85
2220.0,35.61
2215.0,35.69
2210.0,35.30
2205.0,34.95
2200.0,35.90
2195.0,35.39
2190.0,35.62
2185.0,35.69
2180.0,36.02
2175.0,36.12
2170.0,35.72
2165.0,36.67
2160.0,36.34
2155.0,36.74
2150.0,36.86
2145.0,36.51
2140.0,36.28
2135.0,36.64
2130.0,36.17
2125.0,36.65
2120.0,36.46
2115.0,36.42
2110.0,35.97
2105.0,36.12
2100.0,36.49
2095.0,36.28
2090.0,35.87
2085.0,36.38
2080.0,36.15
2075.0,35.65
2070.0,36.05
2065.0,35.77
2060.0,35.89
2055.0,35.89
2050.0,35.89
2045.0,35.58
2040.0,35.70
2035.0,35.49
2030.0,35.45
2025.0,35.36
2020.0,35.20
2015.0,35.18
2010.0,34.94
2005.0,35.14
2000.0,35.14
1995.0,34.94
1990.0,34.92
1985.0,34.91
1980.0,34.92
1975.0,34.84
1970.0,34.81
1965.0,34.70
1960.0,34.62
1955.0,34.81
1950.0,34.96
1945.0,34.75
1940.0,34.97
1935.0,34.98
1930.0,34.87
1925.0,34.79
1920.0,34.62
1915.0,34.74
1910.0,34.55
1905.0,34.52
1900.0,34.39
1895.0,34.68
1890.0,34.44
1885.0,34.41
1880.0,34.57
1875.0,34.43
1870.0,34.64
1865.0,34.47
1860.0,34.33
1855.0,34.25
1850.0,34.32
1845.0,34.16
1840.0,34.26
1835.0,34.18
1830.0,34.18
1825.0,34.11
1820.0,34.01
1815.0,34.04
1810.0,33.96
1805.0,33.98
1800.0,33.93
1795.0,33.88
1790.0,33.99
1785.0,33.92
1780.0,34.00
1775.0,33.98
1770.0,33.88
1765.0,33.79
1760.0,33.92
1755.0,33.73
1750.0,33.94
1745.0,33.72
1740.0,33.68
1735.0,33.74
1730.0,33.70
1725.0,33.71
1720.0,33.55
1715.0,33.63
1710.0,33.49
1705.0,33.42
1700.0,33.49
1695.0,33.29
1690.0,33.22
1685.0,33.33
1680.0,33.15
1675.0,33.10
1670.0,33.08
1665.0,33.09
1660.0,33.06
1655.0,32.94
1650.0,32.99
1645.0,32.85
1640.0,32.80
1635.0,32.79
1630.0,32.72
1625.0,32.74
1620.0,32.59
1615.0,32.53
1610.0,32.56
1605.0,32.44
1600.0,32.47
1595.0,32.38
1590.0,32.30
1585.0,32.24
1580.0,32.25
1575.0,32.15
1570.0,32.12
1565.0,32.06
1560.0,31.97
1555.0,31.97
1550.0,31.90
1545.0,31.84
1540.0,31.77
1535.0,31.70
1530.0,31.66
1525.0,31.55
1520.0,31.52
1515.0,31.47
1510.0,31.35
1505.0,31.30
1500.0,31.22
1495.0,31.03
1490.0,30.99
1485.0,30.94
1480.0,30.90
1475.0,30.78
1470.0,30.80
1465.0,30.74
1460.0,30.71
1455.0,30.62
1450.0,30.62
1445.0,30.61
1440.0,30.50
1435.0,30.42
1430.0,30.26
1425.0,30.20
1420.0,30.09
1415.0,30.02
1410.0,30.01
1405.0,29.90
1400.0,29.86
1395.0,29.86
1390.0,29.79
1385.0,29.77
1380.0,29.65
1375.0,29.59
1370.0,29.47
1365.0,29.39
1360.0,29.30
1355.0,29.29
1350.0,29.14
1345.0,29.07
1340.0,28.97
1335.0,28.91
1330.0,28.83
1325.0,28.78
1320.0,28.70
1315.0,28.56
1310.0,28.53
1305.0,28.43
1300.0,28.38
1295.0,28.23
1290.0,28.25
1285.0,28.12
1280.0,28.11
1275.0,27.95
1270.0,27.88
1265.0,27.86
1260.0,27.79
1255.0,27.66
1250.0,27.59
1245.0,27.45
1240.0,27.45
1235.0,27.38
1230.0,27.30
1225.0,27.21
1220.0,27.18
1215.0,27.13
1210.0,27.07
1205.0,26.98
1200.0,26.89
1195.0,26.87
1190.0,26.81
1185.0,26.72
1180.0,26.71
1175.0,26.59
1170.0,26.53
1165.0,26.43
1160.0,26.32
1155.0,26.36
1150.0,26.31
1145.0,26.20
1140.0,26.21
1135.0,26.15
1130.0,26.06
1125.0,26.03
1120.0,25.97
1115.0,25.93
1110.0,25.94
1105.0,25.83
1100.0,25.78
1095.0,25.78
1090.0,25.78
1085.0,25.75
1080.0,25.67
1075.0,25.64
1070.0,25.56
1065.0,25.66
1060.0,25.56
1055.0,25.55
1050.0,25.56
1045.0,25.52
1040.0,25.50
1035.0,25.60
1030.0,25.58
1025.0,25.53
1020.0,25.52
1015.0,25.59
1010.0,25.57
1005.0,25.56
1000.0,25.58
995.0,25.63
990.0,25.64
985.0,25.67
980.0,25.76
975.0,25.84
970.0,25.91
965.0,25.99
960.0,26.10
955.0,26.10
950.0,26.09
945.0,26.17
940.0,26.16
935.0,26.20
930.0,26.27
925.0,26.18
920.0,26.28
915.0,26.51
910.0,26.51
905.0,26.51
900.0,26.62
895.0,26.72
890.0,26.68
885.0,26.92
880.0,26.98
875.0,27.12
870.0,27.18
865.0,27.12
860.0,27.71
855.0,27.05
850.0,21.10
845.0,22.89
840.0,24.96
835.0,25.83
830.0,26.62
825.0,27.02
820.0,26.99
815.0,27.08
810.0,27.41
805.0,27.52
800.0,27.58
795.0,27.64
790.0,27.66
785.0,27.82
780.0,27.81
775.0,27.92
770.0,28.18
765.0,28.09
760.0,28.14
755.0,28.34
750.0,28.30
745.0,28.45
740.0,28.38
735.0,28.50
730.0,28.54
725.0,28.63
720.0,28.65
715.0,28.66
710.0,28.74
705.0,28.81
700.0,28.80
695.0,28.90
690.0,28.88
685.0,28.94
680.0,28.96
675.0,28.99
670.0,28.98
665.0,29.02
660.0,29.08
655.0,29.08
650.0,29.06
645.0,29.06
640.0,29.11
635.0,29.10
630.0,29.10
625.0,29.09
620.0,29.08
615.0,29.11
610.0,29.10
605.0,29.08
600.0,29.06
595.0,29.06
590.0,29.09
585.0,29.12
580.0,29.06
575.0,29.11
570.0,29.15
565.0,29.19
560.0,29.22
555.0,29.19
550.0,29.24
545.0,29.27
540.0,29.35
535.0,29.39
530.0,29.44
525.0,29.49
520.0,29.56
515.0,29.63
510.0,29.73
505.0,29.81
500.0,29.95
495.0,30.03
490.0,30.13
485.0,30.30
480.0,30.41
475.0,30.57
470.0,30.73
465.0,30.89
460.0,31.07
455.0,31.25
450.0,31.40
445.0,31.57
440.0,31.80
435.0,32.03
430.0,32.25
425.0,32.46
420.0,32.77
415.0,33.02
410.0,33.31
405.0,33.62
400.0,33.95
395.0,34.36
390.0,34.87
385.0,35.30
380.0,35.90
375.0,36.54
370.0,37.32
365.0,37.90
360.0,38.63
355.0,39.49
350.0,40.29
345.0,41.15
340.0,42.08
335.0,42.74
330.0,44.13
325.0,45.13
320.0,47.13
315.0,48.74
310.0,49.48
305.0,51.37
300.0,53.42
295.0,56.38
290.0,58.54
285.0,60.05
280.0,62.11
275.0,63.65
270.0,65.74
265.0,64.40
260.0,65.39
255.0,67.02
250.0,74.84
245.0,77.46
240.0,76.45
235.0,76.45
230.0,76.45
225.0,76.45
220.0,76.45
215.0,76.45
210.0,76.45
205.0,76.45
200.0,76.45
