Created as New Dataset,
nm,%R
2500.0,60.12
2495.0,59.41
2490.0,59.31
2485.0,62.03
2480.0,61.23
2475.0,60.50
2470.0,61.21
2465.0,61.69
2460.0,61.02
2455.0,61.92
2450.0,61.65
2445.0,61.44
2440.0,61.78
2435.0,62.19
2430.0,62.36
2425.0,62.53
2420.0,62.25
2415.0,62.91
2410.0,62.72
2405.0,61.91
2400.0,61.24
2395.0,63.09
2390.0,62.91
2385.0,62.04
2380.0,62.67
2375.0,61.79
2370.0,63.19
2365.0,60.94
2360.0,61.52
2355.0,63.15
2350.0,62.52
2345.0,62.28
2340.0,62.20
2335.0,60.63
2330.0,61.63
2325.0,61.39
2320.0,60.86
2315.0,61.97
2310.0,62.03
2305.0,60.90
2300.0,61.40
2295.0,60.91
2290.0,61.88
2285.0,60.52
2280.0,60.85
2275.0,61.14
2270.0,60.04
2265.0,59.96
2260.0,59.53
2255.0,60.60
2250.0,60.23
2245.0,60.15
2240.0,59.94
2235.0,60.26
2230.0,59.87
2225.0,60.60
2220.0,60.25
2215.0,60.07
2210.0,60.03
2205.0,60.04
2200.0,60.32
2195.0,60.25
2190.0,60.49
2185.0,60.73
2180.0,61.26
2175.0,61.51
2170.0,61.24
2165.0,61.33
2160.0,61.52
2155.0,61.93
2150.0,62.23
2145.0,62.17
2140.0,61.58
2135.0,62.14
2130.0,61.98
2125.0,62.41
2120.0,61.56
2115.0,61.78
2110.0,61.50
2105.0,61.59
2100.0,61.40
2095.0,61.20
2090.0,61.44
2085.0,61.34
2080.0,60.92
2075.0,60.84
2070.0,60.80
2065.0,60.93
2060.0,60.48
2055.0,60.59
2050.0,60.42
2045.0,60.54
2040.0,60.35
2035.0,60.22
2030.0,60.08
2025.0,59.79
2020.0,59.63
2015.0,59.61
2010.0,59.74
2005.0,59.63
2000.0,59.23
1995.0,59.29
1990.0,59.16
1985.0,59.17
1980.0,59.00
1975.0,59.09
1970.0,59.06
1965.0,58.96
1960.0,58.95
1955.0,58.92
1950.0,58.96
1945.0,58.97
1940.0,58.91
1935.0,58.71
1930.0,58.79
1925.0,59.03
1920.0,58.80
1915.0,58.69
1910.0,58.53
1905.0,58.14
1900.0,58.52
1895.0,58.25
1890.0,58.32
1885.0,58.29
1880.0,58.28
1875.0,58.24
1870.0,58.11
1865.0,58.15
1860.0,58.18
1855.0,58.04
1850.0,58.13
1845.0,57.94
1840.0,57.77
1835.0,57.80
1830.0,57.74
1825.0,57.72
1820.0,57.62
1815.0,57.56
1810.0,57.55
1805.0,57.60
1800.0,57.48
1795.0,57.55
1790.0,57.45
1785.0,57.39
1780.0,57.43
1775.0,57.41
1770.0,57.34
1765.0,57.37
1760.0,57.22
1755.0,57.33
1750.0,57.27
1745.0,57.26
1740.0,57.14
1735.0,57.17
1730.0,57.09
1725.0,57.02
1720.0,57.09
1715.0,56.85
1710.0,56.85
1705.0,56.72
1700.0,56.69
1695.0,56.52
1690.0,56.47
1685.0,56.40
1680.0,56.28
1675.0,56.12
1670.0,56.19
1665.0,56.12
1660.0,55.98
1655.0,55.82
1650.0,55.84
1645.0,55.70
1640.0,55.60
1635.0,55.53
1630.0,55.42
1625.0,55.39
1620.0,55.39
1615.0,55.22
1610.0,55.22
1605.0,55.11
1600.0,55.00
1595.0,54.94
1590.0,54.83
1585.0,54.73
1580.0,54.67
1575.0,54.63
1570.0,54.51
1565.0,54.45
1560.0,54.46
1555.0,54.31
1550.0,54.19
1545.0,54.07
1540.0,53.99
1535.0,53.92
1530.0,53.78
1525.0,53.71
1520.0,53.61
1515.0,53.50
1510.0,53.39
1505.0,53.30
1500.0,53.16
1495.0,53.05
1490.0,52.98
1485.0,52.80
1480.0,52.71
1475.0,52.64
1470.0,52.59
1465.0,52.57
1460.0,52.58
1455.0,52.59
1450.0,52.56
1445.0,52.34
1440.0,52.23
1435.0,52.16
1430.0,51.98
1425.0,51.89
1420.0,51.71
1415.0,51.63
1410.0,51.54
1405.0,51.34
1400.0,51.36
1395.0,51.27
1390.0,51.10
1385.0,50.92
1380.0,50.83
1375.0,50.69
1370.0,50.61
1365.0,50.51
1360.0,50.36
1355.0,50.32
1350.0,50.24
1345.0,50.15
1340.0,50.04
1335.0,50.00
1330.0,49.81
1325.0,49.71
1320.0,49.54
1315.0,49.41
1310.0,49.30
1305.0,49.14
1300.0,49.06
1295.0,48.93
1290.0,48.80
1285.0,48.62
1280.0,48.52
1275.0,48.37
1270.0,48.19
1265.0,48.05
1260.0,47.95
1255.0,47.80
1250.0,47.67
1245.0,47.54
1240.0,47.35
1235.0,47.21
1230.0,47.13
1225.0,46.92
1220.0,46.81
1215.0,46.71
1210.0,46.65
1205.0,46.47
1200.0,46.28
1195.0,46.13
1190.0,46.00
1185.0,45.83
1180.0,45.67
1175.0,45.60
1170.0,45.48
1165.0,45.35
1160.0,45.17
1155.0,45.09
1150.0,44.98
1145.0,44.91
1140.0,44.73
1135.0,44.57
1130.0,44.50
1125.0,44.39
1120.0,44.29
1115.0,44.22
1110.0,44.08
1105.0,44.03
1100.0,43.92
1095.0,43.80
1090.0,43.71
1085.0,43.70
1080.0,43.57
1075.0,43.51
1070.0,43.36
1065.0,43.36
1060.0,43.31
1055.0,43.19
1050.0,43.09
1045.0,43.10
1040.0,43.08
1035.0,43.02
1030.0,42.93
1025.0,42.97
1020.0,42.89
1015.0,42.86
1010.0,42.86
1005.0,42.77
1000.0,42.76
995.0,42.73
990.0,42.73
985.0,42.67
980.0,42.64
975.0,42.72
970.0,42.80
965.0,42.94
960.0,43.01
955.0,43.00
950.0,43.09
945.0,43.21
940.0,43.30
935.0,43.32
930.0,43.50
925.0,43.54
920.0,43.66
915.0,43.72
910.0,43.93
905.0,43.96
900.0,44.25
895.0,44.16
890.0,44.40
885.0,44.59
880.0,44.86
875.0,45.04
870.0,45.17
865.0,45.20
860.0,45.69
855.0,45.24
850.0,44.52
845.0,43.83
840.0,43.49
835.0,45.17
830.0,45.29
825.0,46.19
820.0,46.49
815.0,46.83
810.0,46.86
805.0,47.31
800.0,47.51
795.0,47.65
790.0,47.79
785.0,47.98
780.0,48.08
775.0,48.15
770.0,48.21
765.0,48.53
760.0,48.82
755.0,48.81
750.0,48.92
745.0,49.23
740.0,49.33
735.0,49.33
730.0,49.64
725.0,49.63
720.0,49.89
715.0,49.92
710.0,49.95
705.0,50.12
700.0,50.16
695.0,50.30
690.0,50.39
685.0,50.49
680.0,50.58
675.0,50.60
670.0,50.71
665.0,50.79
660.0,50.75
655.0,50.84
650.0,50.86
645.0,50.89
640.0,50.96
635.0,50.98
630.0,51.05
625.0,50.98
620.0,50.96
615.0,51.02
610.0,51.02
605.0,50.96
600.0,50.95
595.0,51.00
590.0,50.95
585.0,51.02
580.0,50.97
575.0,51.00
570.0,51.04
565.0,51.08
560.0,51.11
555.0,51.20
550.0,51.21
545.0,51.28
540.0,51.35
535.0,51.44
530.0,51.50
525.0,51.63
520.0,51.76
515.0,51.91
510.0,52.00
505.0,52.21
500.0,52.40
495.0,52.56
490.0,52.73
485.0,52.99
480.0,53.24
475.0,53.52
470.0,53.76
465.0,54.08
460.0,54.33
455.0,54.61
450.0,54.87
445.0,55.27
440.0,55.65
435.0,56.13
430.0,56.60
425.0,56.97
420.0,57.37
415.0,57.84
410.0,58.39
405.0,58.94
400.0,59.59
395.0,60.27
390.0,61.10
385.0,61.95
380.0,62.84
375.0,64.02
370.0,65.25
365.0,66.49
360.0,67.83
355.0,69.31
350.0,70.67
345.0,71.64
340.0,73.53
335.0,74.61
330.0,76.49
325.0,78.11
320.0,79.96
315.0,81.22
310.0,80.86
305.0,81.39
300.0,82.36
295.0,84.34
290.0,85.48
285.0,86.61
280.0,88.22
275.0,88.73
270.0,86.86
265.0,87.58
260.0,85.61
255.0,87.96
250.0,94.87
245.0,97.89
240.0,103.30
235.0,103.30
230.0,103.30
225.0,103.30
220.0,103.30
215.0,103.30
210.0,103.30
205.0,103.30
200.0,103.30
