Created as New Dataset,
nm,%R
2500.0,47.56
2495.0,48.68
2490.0,46.73
2485.0,48.31
2480.0,48.22
2475.0,48.63
2470.0,45.71
2465.0,47.92
2460.0,47.42
2455.0,47.99
2450.0,49.66
2445.0,48.10
2440.0,47.42
2435.0,47.76
2430.0,49.57
2425.0,48.63
2420.0,47.74
2415.0,48.41
2410.0,47.49
2405.0,49.46
2400.0,48.10
2395.0,47.24
2390.0,48.72
2385.0,47.31
2380.0,48.63
2375.0,48.48
2370.0,46.78
2365.0,47.30
2360.0,48.00
2355.0,48.16
2350.0,46.85
2345.0,47.25
2340.0,47.75
2335.0,47.48
2330.0,47.52
2325.0,48.00
2320.0,47.88
2315.0,48.66
2310.0,47.57
2305.0,47.87
2300.0,47.91
2295.0,46.87
2290.0,47.82
2285.0,46.94
2280.0,47.61
2275.0,47.36
2270.0,47.33
2265.0,47.39
2260.0,46.99
2255.0,46.47
2250.0,47.38
2245.0,47.17
2240.0,46.49
2235.0,46.68
2230.0,46.21
2225.0,47.07
2220.0,47.22
2215.0,46.11
2210.0,47.22
2205.0,47.34
2200.0,46.71
2195.0,47.15
2190.0,47.20
2185.0,47.60
2180.0,47.52
2175.0,47.67
2170.0,48.12
2165.0,47.79
2160.0,48.41
2155.0,48.83
2150.0,49.09
2145.0,48.45
2140.0,48.42
2135.0,48.52
2130.0,48.56
2125.0,48.37
2120.0,48.58
2115.0,47.92
2110.0,47.97
2105.0,48.01
2100.0,47.92
2095.0,47.75
2090.0,47.94
2085.0,47.73
2080.0,47.86
2075.0,47.61
2070.0,47.82
2065.0,47.68
2060.0,47.47
2055.0,47.44
2050.0,47.43
2045.0,47.55
2040.0,47.00
2035.0,47.01
2030.0,46.89
2025.0,46.88
2020.0,46.81
2015.0,46.76
2010.0,46.58
2005.0,46.36
2000.0,46.46
1995.0,46.45
1990.0,46.22
1985.0,46.17
1980.0,46.29
1975.0,46.10
1970.0,46.07
1965.0,46.07
1960.0,45.93
1955.0,45.97
1950.0,46.09
1945.0,45.82
1940.0,45.85
1935.0,45.98
1930.0,46.21
1925.0,45.92
1920.0,45.92
1915.0,45.95
1910.0,45.59
1905.0,45.54
1900.0,45.52
1895.0,45.78
1890.0,45.56
1885.0,45.52
1880.0,45.69
1875.0,45.71
1870.0,45.50
1865.0,45.56
1860.0,45.45
1855.0,45.22
1850.0,45.35
1845.0,45.29
1840.0,45.26
1835.0,45.14
1830.0,45.15
1825.0,45.10
1820.0,44.91
1815.0,44.98
1810.0,44.95
1805.0,44.80
1800.0,44.74
1795.0,44.55
1790.0,44.78
1785.0,44.91
1780.0,44.83
1775.0,44.74
1770.0,44.76
1765.0,44.69
1760.0,44.63
1755.0,44.61
1750.0,44.64
1745.0,44.48
1740.0,44.55
1735.0,44.44
1730.0,44.59
1725.0,44.18
1720.0,44.18
1715.0,44.04
1710.0,44.04
1705.0,43.90
1700.0,43.91
1695.0,43.84
1690.0,43.76
1685.0,43.71
1680.0,43.55
1675.0,43.59
1670.0,43.49
1665.0,43.48
1660.0,43.43
1655.0,43.33
1650.0,43.28
1645.0,43.21
1640.0,43.11
1635.0,43.09
1630.0,42.95
1625.0,42.91
1620.0,42.82
1615.0,42.74
1610.0,42.73
1605.0,42.59
1600.0,42.54
1595.0,42.50
1590.0,42.42
1585.0,42.35
1580.0,42.31
1575.0,42.18
1570.0,42.18
1565.0,42.08
1560.0,41.96
1555.0,41.95
1550.0,41.78
1545.0,41.69
1540.0,41.66
1535.0,41.63
1530.0,41.50
1525.0,41.41
1520.0,41.31
1515.0,41.20
1510.0,41.16
1505.0,40.97
1500.0,40.92
1495.0,40.75
1490.0,40.65
1485.0,40.57
1480.0,40.56
1475.0,40.49
1470.0,40.42
1465.0,40.32
1460.0,40.30
1455.0,40.19
1450.0,40.13
1445.0,40.05
1440.0,39.94
1435.0,39.84
1430.0,39.73
1425.0,39.59
1420.0,39.54
1415.0,39.38
1410.0,39.25
1405.0,39.18
1400.0,39.08
1395.0,39.05
1390.0,38.93
1385.0,38.86
1380.0,38.72
1375.0,38.67
1370.0,38.51
1365.0,38.41
1360.0,38.35
1355.0,38.20
1350.0,38.12
1345.0,38.02
1340.0,37.92
1335.0,37.84
1330.0,37.79
1325.0,37.63
1320.0,37.51
1315.0,37.42
1310.0,37.28
1305.0,37.16
1300.0,37.03
1295.0,36.92
1290.0,36.83
1285.0,36.67
1280.0,36.55
1275.0,36.45
1270.0,36.36
1265.0,36.23
1260.0,36.14
1255.0,36.07
1250.0,35.92
1245.0,35.77
1240.0,35.63
1235.0,35.52
1230.0,35.38
1225.0,35.26
1220.0,35.20
1215.0,35.11
1210.0,34.99
1205.0,34.85
1200.0,34.75
1195.0,34.61
1190.0,34.56
1185.0,34.41
1180.0,34.32
1175.0,34.20
1170.0,34.11
1165.0,33.96
1160.0,33.93
1155.0,33.79
1150.0,33.68
1145.0,33.64
1140.0,33.49
1135.0,33.36
1130.0,33.33
1125.0,33.25
1120.0,33.14
1115.0,33.09
1110.0,32.96
1105.0,32.95
1100.0,32.87
1095.0,32.78
1090.0,32.70
1085.0,32.60
1080.0,32.59
1075.0,32.54
1070.0,32.48
1065.0,32.38
1060.0,32.37
1055.0,32.31
1050.0,32.23
1045.0,32.27
1040.0,32.21
1035.0,32.20
1030.0,32.16
1025.0,32.15
1020.0,32.07
1015.0,32.05
1010.0,32.06
1005.0,32.11
1000.0,32.08
995.0,32.07
990.0,32.07
985.0,32.08
980.0,32.19
975.0,32.20
970.0,32.38
965.0,32.41
960.0,32.48
955.0,32.49
950.0,32.48
945.0,32.58
940.0,32.62
935.0,32.78
930.0,32.79
925.0,32.88
920.0,32.88
915.0,33.06
910.0,33.24
905.0,33.38
900.0,33.50
895.0,33.57
890.0,33.56
885.0,33.74
880.0,34.00
875.0,33.84
870.0,34.27
865.0,34.18
860.0,34.75
855.0,34.32
850.0,29.91
845.0,31.78
840.0,33.01
835.0,33.67
830.0,34.24
825.0,34.78
820.0,34.76
815.0,35.19
810.0,35.42
805.0,35.51
800.0,35.49
795.0,35.66
790.0,35.94
785.0,36.15
780.0,36.15
775.0,36.29
770.0,36.50
765.0,36.55
760.0,36.74
755.0,36.83
750.0,37.01
745.0,37.19
740.0,37.24
735.0,37.33
730.0,37.42
725.0,37.58
720.0,37.63
715.0,37.77
710.0,37.86
705.0,37.91
700.0,37.95
695.0,38.09
690.0,38.11
685.0,38.14
680.0,38.25
675.0,38.34
670.0,38.27
665.0,38.37
660.0,38.43
655.0,38.47
650.0,38.47
645.0,38.52
640.0,38.55
635.0,38.49
630.0,38.50
625.0,38.55
620.0,38.49
615.0,38.49
610.0,38.53
605.0,38.49
600.0,38.50
595.0,38.43
590.0,38.46
585.0,38.42
580.0,38.42
575.0,38.42
570.0,38.41
565.0,38.40
560.0,38.44
555.0,38.43
550.0,38.45
545.0,38.45
540.0,38.49
535.0,38.50
530.0,38.52
525.0,38.58
520.0,38.62
515.0,38.68
510.0,38.77
505.0,38.90
500.0,39.03
495.0,39.17
490.0,39.36
485.0,39.51
480.0,39.68
475.0,39.84
470.0,40.01
465.0,40.25
460.0,40.49
455.0,40.66
450.0,40.87
445.0,41.13
440.0,41.41
435.0,41.64
430.0,41.92
425.0,42.21
420.0,42.54
415.0,42.84
410.0,43.19
405.0,43.54
400.0,43.91
395.0,44.47
390.0,44.98
385.0,45.51
380.0,46.18
375.0,46.97
370.0,47.60
365.0,48.45
360.0,49.23
355.0,50.12
350.0,50.93
345.0,51.98
340.0,52.61
335.0,53.75
330.0,54.85
325.0,55.44
320.0,56.64
315.0,57.93
310.0,58.22
305.0,58.55
300.0,59.84
295.0,61.70
290.0,62.98
285.0,64.40
280.0,64.91
275.0,65.76
270.0,68.13
265.0,67.57
260.0,67.89
255.0,68.94
250.0,77.15
245.0,77.15
240.0,77.15
235.0,77.15
230.0,77.15
225.0,77.15
220.0,77.15
215.0,77.15
210.0,77.15
205.0,77.15
200.0,77.15
