Created as New Dataset,
nm,%T
2500.0,36.75
2495.0,39.40
2490.0,37.75
2485.0,40.58
2480.0,36.30
2475.0,38.28
2470.0,40.83
2465.0,38.24
2460.0,39.36
2455.0,37.87
2450.0,38.76
2445.0,40.99
2440.0,37.77
2435.0,40.11
2430.0,38.66
2425.0,39.34
2420.0,40.28
2415.0,37.88
2410.0,37.82
2405.0,40.28
2400.0,38.36
2395.0,39.90
2390.0,39.04
2385.0,39.35
2380.0,38.82
2375.0,39.64
2370.0,39.02
2365.0,38.64
2360.0,38.18
2355.0,38.69
2350.0,38.04
2345.0,37.33
2340.0,37.63
2335.0,37.54
2330.0,39.59
2325.0,37.72
2320.0,38.46
2315.0,38.04
2310.0,37.76
2305.0,37.89
2300.0,38.15
2295.0,37.75
2290.0,38.14
2285.0,37.33
2280.0,38.78
2275.0,38.23
2270.0,37.80
2265.0,37.12
2260.0,38.55
2255.0,37.99
2250.0,38.22
2245.0,37.10
2240.0,37.35
2235.0,37.27
2230.0,37.74
2225.0,37.53
2220.0,38.05
2215.0,37.36
2210.0,37.68
2205.0,38.12
2200.0,37.65
2195.0,38.00
2190.0,38.08
2185.0,37.70
2180.0,38.11
2175.0,38.77
2170.0,38.73
2165.0,39.17
2160.0,38.19
2155.0,39.15
2150.0,39.26
2145.0,38.84
2140.0,38.79
2135.0,38.60
2130.0,39.39
2125.0,38.99
2120.0,38.73
2115.0,38.51
2110.0,38.53
2105.0,38.91
2100.0,38.53
2095.0,38.77
2090.0,38.89
2085.0,38.86
2080.0,38.25
2075.0,38.68
2070.0,38.35
2065.0,38.53
2060.0,38.51
2055.0,38.55
2050.0,38.56
2045.0,38.40
2040.0,38.35
2035.0,38.28
2030.0,37.98
2025.0,38.05
2020.0,38.17
2015.0,38.11
2010.0,38.02
2005.0,37.86
2000.0,37.92
1995.0,37.73
1990.0,37.85
1985.0,37.81
1980.0,37.54
1975.0,37.80
1970.0,37.67
1965.0,37.72
1960.0,37.72
1955.0,37.78
1950.0,37.74
1945.0,37.98
1940.0,38.12
1935.0,38.06
1930.0,37.86
1925.0,38.10
1920.0,38.36
1915.0,38.28
1910.0,38.07
1905.0,38.57
1900.0,38.32
1895.0,38.39
1890.0,38.46
1885.0,38.35
1880.0,38.70
1875.0,38.61
1870.0,38.62
1865.0,38.72
1860.0,38.74
1855.0,38.77
1850.0,38.79
1845.0,38.82
1840.0,38.94
1835.0,38.96
1830.0,38.86
1825.0,38.90
1820.0,38.89
1815.0,38.98
1810.0,39.05
1805.0,38.96
1800.0,39.06
1795.0,39.13
1790.0,39.08
1785.0,39.26
1780.0,39.39
1775.0,39.40
1770.0,39.47
1765.0,39.40
1760.0,39.48
1755.0,39.71
1750.0,39.65
1745.0,39.74
1740.0,39.88
1735.0,39.94
1730.0,40.02
1725.0,40.04
1720.0,40.21
1715.0,40.22
1710.0,40.19
1705.0,40.36
1700.0,40.33
1695.0,40.43
1690.0,40.45
1685.0,40.44
1680.0,40.59
1675.0,40.61
1670.0,40.63
1665.0,40.87
1660.0,40.81
1655.0,40.85
1650.0,40.96
1645.0,41.03
1640.0,41.03
1635.0,41.11
1630.0,41.17
1625.0,41.31
1620.0,41.36
1615.0,41.41
1610.0,41.48
1605.0,41.58
1600.0,41.69
1595.0,41.71
1590.0,41.76
1585.0,41.86
1580.0,42.01
1575.0,42.09
1570.0,42.20
1565.0,42.21
1560.0,42.38
1555.0,42.42
1550.0,42.58
1545.0,42.61
1540.0,42.74
1535.0,42.80
1530.0,42.91
1525.0,43.01
1520.0,43.09
1515.0,43.22
1510.0,43.36
1505.0,43.57
1500.0,43.66
1495.0,43.69
1490.0,43.76
1485.0,43.84
1480.0,43.91
1475.0,44.06
1470.0,44.17
1465.0,44.27
1460.0,44.39
1455.0,44.53
1450.0,44.68
1445.0,44.79
1440.0,44.82
1435.0,45.01
1430.0,45.15
1425.0,45.26
1420.0,45.46
1415.0,45.52
1410.0,45.69
1405.0,45.83
1400.0,46.04
1395.0,46.17
1390.0,46.38
1385.0,46.53
1380.0,46.65
1375.0,46.75
1370.0,46.92
1365.0,47.03
1360.0,47.15
1355.0,47.26
1350.0,47.34
1345.0,47.49
1340.0,47.64
1335.0,47.78
1330.0,47.98
1325.0,48.10
1320.0,48.19
1315.0,48.38
1310.0,48.48
1305.0,48.66
1300.0,48.80
1295.0,48.94
1290.0,49.05
1285.0,49.26
1280.0,49.36
1275.0,49.46
1270.0,49.66
1265.0,49.82
1260.0,49.95
1255.0,50.09
1250.0,50.26
1245.0,50.32
1240.0,50.50
1235.0,50.60
1230.0,50.82
1225.0,50.92
1220.0,51.08
1215.0,51.19
1210.0,51.29
1205.0,51.50
1200.0,51.61
1195.0,51.75
1190.0,51.80
1185.0,52.01
1180.0,52.12
1175.0,52.26
1170.0,52.34
1165.0,52.45
1160.0,52.53
1155.0,52.73
1150.0,52.80
1145.0,52.93
1140.0,53.03
1135.0,53.10
1130.0,53.18
1125.0,53.33
1120.0,53.41
1115.0,53.49
1110.0,53.62
1105.0,53.66
1100.0,53.74
1095.0,53.77
1090.0,53.88
1085.0,53.93
1080.0,53.93
1075.0,54.04
1070.0,54.06
1065.0,54.11
1060.0,54.11
1055.0,54.14
1050.0,54.17
1045.0,54.20
1040.0,54.19
1035.0,54.21
1030.0,54.22
1025.0,54.18
1020.0,54.15
1015.0,54.20
1010.0,54.13
1005.0,54.13
1000.0,54.08
995.0,54.02
990.0,53.97
985.0,53.90
980.0,53.84
975.0,53.77
970.0,53.74
965.0,53.62
960.0,53.52
955.0,53.42
950.0,53.39
945.0,53.33
940.0,53.28
935.0,53.17
930.0,52.98
925.0,52.93
920.0,52.86
915.0,52.72
910.0,52.53
905.0,52.49
900.0,52.35
895.0,52.04
890.0,51.86
885.0,51.98
880.0,51.73
875.0,51.70
870.0,51.53
865.0,51.37
860.0,51.24
855.0,50.25
850.0,49.84
845.0,49.90
840.0,48.95
835.0,49.13
830.0,48.98
825.0,48.88
820.0,48.54
815.0,48.49
810.0,48.18
805.0,47.90
800.0,47.87
795.0,47.73
790.0,47.60
785.0,47.21
780.0,47.05
775.0,46.91
770.0,46.78
765.0,46.53
760.0,46.38
755.0,46.33
750.0,46.10
745.0,45.99
740.0,45.86
735.0,45.70
730.0,45.55
725.0,45.52
720.0,45.41
715.0,45.38
710.0,45.29
705.0,45.19
700.0,45.06
695.0,45.09
690.0,45.00
685.0,44.98
680.0,44.89
675.0,44.82
670.0,44.88
665.0,44.88
660.0,44.95
655.0,44.94
650.0,44.93
645.0,44.94
640.0,44.95
635.0,44.97
630.0,45.10
625.0,45.08
620.0,45.13
615.0,45.22
610.0,45.28
605.0,45.33
600.0,45.37
595.0,45.54
590.0,45.59
585.0,45.69
580.0,45.72
575.0,45.81
570.0,45.88
565.0,45.97
560.0,46.06
555.0,46.14
550.0,46.19
545.0,46.25
540.0,46.27
535.0,46.33
530.0,46.35
525.0,46.36
520.0,46.34
515.0,46.30
510.0,46.24
505.0,46.31
500.0,46.24
495.0,46.29
490.0,46.22
485.0,46.23
480.0,46.25
475.0,46.16
470.0,46.09
465.0,46.13
460.0,46.06
455.0,45.99
450.0,45.88
445.0,45.84
440.0,45.83
435.0,45.83
430.0,45.84
425.0,45.87
420.0,45.88
415.0,45.99
410.0,45.96
405.0,46.04
400.0,46.08
395.0,46.23
390.0,46.29
385.0,46.56
380.0,46.80
375.0,47.14
370.0,47.27
365.0,47.67
360.0,48.13
355.0,48.32
350.0,48.63
345.0,48.67
340.0,48.79
335.0,48.84
330.0,48.84
325.0,48.66
320.0,48.64
315.0,47.71
310.0,46.21
305.0,44.67
300.0,42.98
295.0,42.91
290.0,40.96
285.0,40.06
280.0,38.69
275.0,37.23
270.0,36.19
265.0,36.45
260.0,36.17
255.0,38.65
250.0,41.54
245.0,42.65
240.0,52.88
235.0,52.88
230.0,52.88
225.0,52.88
220.0,52.88
215.0,52.88
210.0,52.88
205.0,52.88
200.0,52.88
