Created as New Dataset,
nm,%T
2500.0,46.57
2495.0,47.22
2490.0,46.06
2485.0,49.33
2480.0,46.34
2475.0,46.65
2470.0,45.87
2465.0,46.24
2460.0,45.96
2455.0,46.76
2450.0,47.96
2445.0,45.95
2440.0,46.22
2435.0,46.19
2430.0,47.56
2425.0,47.20
2420.0,47.59
2415.0,48.22
2410.0,46.99
2405.0,46.62
2400.0,46.74
2395.0,45.45
2390.0,48.03
2385.0,47.89
2380.0,47.12
2375.0,46.62
2370.0,47.33
2365.0,46.28
2360.0,47.11
2355.0,46.18
2350.0,45.65
2345.0,45.99
2340.0,46.42
2335.0,46.17
2330.0,46.92
2325.0,46.00
2320.0,46.61
2315.0,46.80
2310.0,45.96
2305.0,46.22
2300.0,46.68
2295.0,45.73
2290.0,45.87
2285.0,45.69
2280.0,45.57
2275.0,46.00
2270.0,45.82
2265.0,45.97
2260.0,46.04
2255.0,45.35
2250.0,46.03
2245.0,45.25
2240.0,45.48
2235.0,45.07
2230.0,45.24
2225.0,45.47
2220.0,45.52
2215.0,45.79
2210.0,45.92
2205.0,46.17
2200.0,45.66
2195.0,45.92
2190.0,46.02
2185.0,46.49
2180.0,46.09
2175.0,46.68
2170.0,46.86
2165.0,47.05
2160.0,47.00
2155.0,47.39
2150.0,47.75
2145.0,47.09
2140.0,46.70
2135.0,46.83
2130.0,47.56
2125.0,47.12
2120.0,47.23
2115.0,46.97
2110.0,46.86
2105.0,46.56
2100.0,46.77
2095.0,46.48
2090.0,46.43
2085.0,46.38
2080.0,46.49
2075.0,46.47
2070.0,46.27
2065.0,46.42
2060.0,46.39
2055.0,46.48
2050.0,46.23
2045.0,46.48
2040.0,46.19
2035.0,46.34
2030.0,46.19
2025.0,46.12
2020.0,45.99
2015.0,46.14
2010.0,45.97
2005.0,45.76
2000.0,45.71
1995.0,45.72
1990.0,45.80
1985.0,45.55
1980.0,45.69
1975.0,45.60
1970.0,45.60
1965.0,45.65
1960.0,45.52
1955.0,45.73
1950.0,45.82
1945.0,45.62
1940.0,45.74
1935.0,45.77
1930.0,46.02
1925.0,45.99
1920.0,46.15
1915.0,46.08
1910.0,45.90
1905.0,45.79
1900.0,46.28
1895.0,46.26
1890.0,46.15
1885.0,46.17
1880.0,46.47
1875.0,46.63
1870.0,46.53
1865.0,46.61
1860.0,46.53
1855.0,46.50
1850.0,46.49
1845.0,46.74
1840.0,46.65
1835.0,46.72
1830.0,46.69
1825.0,46.67
1820.0,46.55
1815.0,46.76
1810.0,46.71
1805.0,46.67
1800.0,46.77
1795.0,46.81
1790.0,46.90
1785.0,46.97
1780.0,46.93
1775.0,47.18
1770.0,47.18
1765.0,47.21
1760.0,47.32
1755.0,47.28
1750.0,47.46
1745.0,47.46
1740.0,47.55
1735.0,47.66
1730.0,47.78
1725.0,47.89
1720.0,47.91
1715.0,47.87
1710.0,47.89
1705.0,48.00
1700.0,48.03
1695.0,48.07
1690.0,48.14
1685.0,48.22
1680.0,48.24
1675.0,48.26
1670.0,48.30
1665.0,48.46
1660.0,48.45
1655.0,48.47
1650.0,48.46
1645.0,48.59
1640.0,48.65
1635.0,48.77
1630.0,48.80
1625.0,48.84
1620.0,48.91
1615.0,48.98
1610.0,48.95
1605.0,49.09
1600.0,49.18
1595.0,49.30
1590.0,49.39
1585.0,49.42
1580.0,49.53
1575.0,49.52
1570.0,49.65
1565.0,49.74
1560.0,49.83
1555.0,49.95
1550.0,49.97
1545.0,50.07
1540.0,50.21
1535.0,50.25
1530.0,50.38
1525.0,50.41
1520.0,50.49
1515.0,50.67
1510.0,50.78
1505.0,50.85
1500.0,50.96
1495.0,51.02
1490.0,51.12
1485.0,51.21
1480.0,51.29
1475.0,51.42
1470.0,51.53
1465.0,51.58
1460.0,51.69
1455.0,51.78
1450.0,51.90
1445.0,52.04
1440.0,52.14
1435.0,52.23
1430.0,52.33
1425.0,52.48
1420.0,52.66
1415.0,52.76
1410.0,52.88
1405.0,53.02
1400.0,53.12
1395.0,53.24
1390.0,53.37
1385.0,53.54
1380.0,53.68
1375.0,53.75
1370.0,53.90
1365.0,54.07
1360.0,54.22
1355.0,54.30
1350.0,54.33
1345.0,54.41
1340.0,54.55
1335.0,54.69
1330.0,54.86
1325.0,54.89
1320.0,55.04
1315.0,55.15
1310.0,55.25
1305.0,55.44
1300.0,55.54
1295.0,55.65
1290.0,55.76
1285.0,55.85
1280.0,56.01
1275.0,56.11
1270.0,56.24
1265.0,56.41
1260.0,56.52
1255.0,56.63
1250.0,56.75
1245.0,56.82
1240.0,56.97
1235.0,57.07
1230.0,57.20
1225.0,57.38
1220.0,57.45
1215.0,57.55
1210.0,57.68
1205.0,57.80
1200.0,57.91
1195.0,58.04
1190.0,58.17
1185.0,58.26
1180.0,58.38
1175.0,58.45
1170.0,58.56
1165.0,58.64
1160.0,58.79
1155.0,58.89
1150.0,58.96
1145.0,59.11
1140.0,59.18
1135.0,59.29
1130.0,59.38
1125.0,59.45
1120.0,59.55
1115.0,59.60
1110.0,59.66
1105.0,59.77
1100.0,59.81
1095.0,59.90
1090.0,59.96
1085.0,59.97
1080.0,60.04
1075.0,60.13
1070.0,60.17
1065.0,60.18
1060.0,60.26
1055.0,60.28
1050.0,60.33
1045.0,60.40
1040.0,60.38
1035.0,60.40
1030.0,60.42
1025.0,60.43
1020.0,60.42
1015.0,60.41
1010.0,60.36
1005.0,60.39
1000.0,60.36
995.0,60.36
990.0,60.27
985.0,60.27
980.0,60.28
975.0,60.24
970.0,60.15
965.0,60.14
960.0,60.06
955.0,60.00
950.0,59.96
945.0,59.90
940.0,59.88
935.0,59.86
930.0,59.72
925.0,59.66
920.0,59.56
915.0,59.55
910.0,59.41
905.0,59.35
900.0,59.34
895.0,59.30
890.0,58.93
885.0,58.85
880.0,58.76
875.0,58.45
870.0,58.70
865.0,58.46
860.0,58.15
855.0,57.00
850.0,57.10
845.0,57.02
840.0,57.00
835.0,56.62
830.0,56.60
825.0,56.33
820.0,56.16
815.0,56.10
810.0,55.80
805.0,55.49
800.0,55.34
795.0,55.18
790.0,55.13
785.0,55.14
780.0,54.93
775.0,54.70
770.0,54.61
765.0,54.47
760.0,54.24
755.0,54.12
750.0,53.93
745.0,53.91
740.0,53.67
735.0,53.60
730.0,53.47
725.0,53.42
720.0,53.24
715.0,53.16
710.0,53.15
705.0,53.06
700.0,52.99
695.0,52.96
690.0,52.85
685.0,52.77
680.0,52.75
675.0,52.75
670.0,52.68
665.0,52.64
660.0,52.60
655.0,52.64
650.0,52.62
645.0,52.67
640.0,52.63
635.0,52.69
630.0,52.73
625.0,52.76
620.0,52.82
615.0,52.82
610.0,52.87
605.0,52.90
600.0,52.97
595.0,53.00
590.0,53.09
585.0,53.14
580.0,53.18
575.0,53.26
570.0,53.33
565.0,53.36
560.0,53.47
555.0,53.54
550.0,53.54
545.0,53.60
540.0,53.63
535.0,53.67
530.0,53.64
525.0,53.68
520.0,53.66
515.0,53.61
510.0,53.65
505.0,53.67
500.0,53.63
495.0,53.62
490.0,53.63
485.0,53.63
480.0,53.64
475.0,53.59
470.0,53.55
465.0,53.56
460.0,53.52
455.0,53.44
450.0,53.38
445.0,53.37
440.0,53.38
435.0,53.33
430.0,53.38
425.0,53.39
420.0,53.36
415.0,53.38
410.0,53.45
405.0,53.51
400.0,53.52
395.0,53.72
390.0,53.90
385.0,54.05
380.0,54.36
375.0,54.80
370.0,55.08
365.0,55.47
360.0,55.78
355.0,56.25
350.0,56.35
345.0,56.87
340.0,56.74
335.0,57.14
330.0,57.31
325.0,57.47
320.0,57.86
315.0,58.18
310.0,57.14
305.0,56.55
300.0,56.80
295.0,56.56
290.0,56.49
285.0,56.25
280.0,54.86
275.0,53.95
270.0,52.67
265.0,51.77
260.0,52.32
255.0,54.96
250.0,62.27
245.0,62.27
240.0,62.27
235.0,62.27
230.0,62.27
225.0,62.27
220.0,62.27
215.0,62.27
210.0,62.27
205.0,62.27
200.0,62.27
